Time (UTCG),x (km),y (km),z (km),vx (km/sec),vy (km/sec),vz (km/sec)
0.00,7000,0.000001,-0.001608,0.000002,1.310359,7.431412
10.00,6999.594282,13.070099,74.223033,-0.081244,1.310283,7.430981
20.00,6998.377141,26.138687,148.439069,-0.16248,1.310056,7.429689
30.00,6996.348719,39.204252,222.637896,-0.243698,1.309677,7.427535
40.00,6993.509249,52.265284,296.810912,-0.324887,1.309147,7.42452
50.00,6989.859063,65.320274,370.949518,-0.406039,1.308465,7.420645
60.00,6985.398582,78.367711,445.045118,-0.487143,1.307633,7.415909
70.00,6980.128323,91.406087,519.089122,-0.568191,1.306649,7.410314
80.00,6974.048899,104.433896,593.072947,-0.649174,1.305514,7.403859
90.00,6967.161012,117.449629,666.988014,-0.730081,1.304228,7.396546
100.00,6959.465463,130.451783,740.825755,-0.810903,1.302791,7.388376
110.00,6950.963143,143.438854,814.577609,-0.891631,1.301203,7.379348
120.00,6941.655037,156.409341,888.235026,-0.972256,1.299466,7.369466
130.00,6931.542225,169.361744,961.789466,-1.052768,1.297577,7.358729
140.00,6920.625879,182.294566,1035.232403,-1.133158,1.295539,7.347139
150.00,6908.907265,195.20631,1108.555322,-1.213417,1.293351,7.334697
160.00,6896.38774,208.095485,1181.749721,-1.293535,1.291014,7.321405
170.00,6883.068757,220.9606,1254.807116,-1.373504,1.288527,7.307264
180.00,6868.951859,233.800168,1327.719037,-1.453313,1.285891,7.292276
190.00,6854.038683,246.612704,1400.47703,-1.532953,1.283107,7.276442
200.00,6838.330957,259.396726,1473.07266,-1.612416,1.280174,7.259765
210.00,6821.830503,272.150758,1545.497512,-1.691692,1.277094,7.242246
220.00,6804.539233,284.873323,1617.743188,-1.770772,1.273865,7.223888
230.00,6786.459151,297.562951,1689.801313,-1.849646,1.270489,7.204692
240.00,6767.592355,310.218176,1761.663534,-1.928306,1.266967,7.184661
250.00,6747.94103,322.837533,1833.321518,-2.006743,1.263298,7.163797
260.00,6727.507455,335.419563,1904.766958,-2.084947,1.259483,7.142102
270.00,6706.293998,347.962813,1975.991572,-2.162909,1.255522,7.119579
280.00,6684.303119,360.465831,2046.987101,-2.24062,1.251416,7.096231
290.00,6661.537368,372.927173,2117.745316,-2.318072,1.247165,7.07206
300.00,6637.999382,385.345396,2188.258013,-2.395255,1.242771,7.04707
310.00,6613.691891,397.719067,2258.517016,-2.472161,1.238232,7.021262
320.00,6588.617713,410.046753,2328.514182,-2.548779,1.23355,6.994641
330.00,6562.779754,422.32703,2398.241394,-2.625103,1.228726,6.967208
340.00,6536.181009,434.558477,2467.690569,-2.701122,1.22376,6.938968
350.00,6508.824563,446.739681,2536.853655,-2.776828,1.218652,6.909923
360.00,6480.713586,458.869234,2605.722635,-2.852212,1.213403,6.880077
370.00,6451.851336,470.945732,2674.289523,-2.927265,1.208014,6.849434
380.00,6422.241161,482.967779,2742.546371,-3.001979,1.202486,6.817996
390.00,6391.886492,494.933986,2810.485265,-3.076345,1.196818,6.785768
400.00,6360.790848,506.842969,2878.098329,-3.150354,1.191012,6.752753
410.00,6328.957834,518.693351,2945.377725,-3.223998,1.185068,6.718956
420.00,6296.39114,530.483762,3012.315652,-3.297269,1.178987,6.684379
430.00,6263.094542,542.212838,3078.90435,-3.370157,1.17277,6.649028
440.00,6229.071899,553.879224,3145.136099,-3.442655,1.166417,6.612906
450.00,6194.327155,565.481571,3211.003221,-3.514753,1.15993,6.576017
460.00,6158.864339,577.018537,3276.498079,-3.586444,1.153308,6.538365
470.00,6122.687561,588.488789,3341.613081,-3.657719,1.146553,6.499956
480.00,6085.801014,599.890999,3406.340677,-3.72857,1.139665,6.460793
490.00,6048.208976,611.223851,3470.673363,-3.798989,1.132646,6.420881
500.00,6009.915803,622.486033,3534.603681,-3.868968,1.125495,6.380225
510.00,5970.925935,633.676244,3598.124219,-3.938498,1.118215,6.338829
520.00,5931.243892,644.793189,3661.227613,-4.007571,1.110805,6.296698
530.00,5890.874274,655.835583,3723.906548,-4.07618,1.103267,6.253837
540.00,5849.821761,666.80215,3786.153756,-4.144317,1.095601,6.210251
550.00,5808.091111,677.691622,3847.962021,-4.211973,1.087809,6.165945
560.00,5765.687162,688.502739,3909.324177,-4.27914,1.079891,6.120924
570.00,5722.614831,699.234252,3970.233111,-4.345812,1.071848,6.075194
580.00,5678.879109,709.88492,4030.681761,-4.41198,1.063681,6.028759
590.00,5634.485068,720.453511,4090.66312,-4.477636,1.055391,5.981626
600.00,5589.437853,730.938803,4150.170232,-4.542774,1.046979,5.933798
610.00,5543.742687,741.339585,4209.196199,-4.607384,1.038446,5.885283
620.00,5497.404866,751.654653,4267.734179,-4.671461,1.029792,5.836086
630.00,5450.429762,761.882816,4325.777385,-4.734996,1.02102,5.786212
640.00,5402.822822,772.022889,4383.319086,-4.797982,1.01213,5.735667
650.00,5354.589563,782.073702,4440.352614,-4.860412,1.003123,5.684458
660.00,5305.735577,792.034092,4496.871355,-4.922279,0.994,5.632589
670.00,5256.266528,801.902907,4552.868756,-4.983575,0.984761,5.580067
680.00,5206.18815,811.679006,4608.338327,-5.044293,0.975409,5.526898
690.00,5155.506249,821.361259,4663.273636,-5.104426,0.965945,5.473089
700.00,5104.226699,830.948547,4717.668314,-5.163968,0.956368,5.418645
710.00,5052.355445,840.439761,4771.516055,-5.222911,0.946681,5.363573
720.00,4999.898501,849.833804,4824.810616,-5.281249,0.936885,5.307879
730.00,4946.861948,859.129589,4877.545819,-5.338974,0.92698,5.25157
740.00,4893.251933,868.326042,4929.71555,-5.396081,0.916968,5.194652
750.00,4839.074671,877.422099,4981.313761,-5.452562,0.90685,5.137131
760.00,4784.336443,886.416709,5032.33447,-5.50841,0.896627,5.079015
770.00,4729.043595,895.308832,5082.771761,-5.563621,0.8863,5.02031
780.00,4673.202535,904.09744,5132.619788,-5.618186,0.875871,4.961024
790.00,4616.819738,912.781517,5181.87277,-5.6721,0.865341,4.901162
800.00,4559.90174,921.360057,5230.524999,-5.725357,0.854711,4.840732
810.00,4502.455138,929.832071,5278.570834,-5.777949,0.843981,4.77974
820.00,4444.486593,938.196578,5326.004704,-5.829872,0.833155,4.718195
830.00,4386.002824,946.45261,5372.821111,-5.88112,0.822232,4.656102
840.00,4327.01061,954.599215,5419.014626,-5.931685,0.811213,4.59347
850.00,4267.516791,962.635448,5464.579895,-5.981563,0.800102,4.530305
860.00,4207.528264,970.560383,5509.511635,-6.030747,0.788897,4.466615
870.00,4147.051981,978.373101,5553.804636,-6.079233,0.777601,4.402407
880.00,4086.094955,986.0727,5597.453764,-6.127013,0.766216,4.337689
890.00,4024.664252,993.65829,5640.453959,-6.174083,0.754742,4.272468
900.00,3962.766992,1001.128994,5682.800235,-6.220438,0.74318,4.206751
910.00,3900.410351,1008.483947,5724.487682,-6.266071,0.731533,4.140547
920.00,3837.601558,1015.722299,5765.511468,-6.310978,0.719801,4.073863
930.00,3774.347894,1022.843214,5805.866837,-6.355154,0.707986,4.006706
940.00,3710.656692,1029.845869,5845.54911,-6.398593,0.696089,3.939085
950.00,3646.535334,1036.729453,5884.553687,-6.44129,0.684111,3.871008
960.00,3581.991255,1043.49317,5922.876046,-6.48324,0.672055,3.802481
970.00,3517.031936,1050.136239,5960.511743,-6.524439,0.659921,3.733514
980.00,3451.664907,1056.657892,5997.456416,-6.564881,0.64771,3.664114
990.00,3385.897747,1063.057375,6033.705782,-6.604562,0.635424,3.594289
1000.00,3319.73808,1069.333947,6069.255638,-6.643478,0.623066,3.524047
1010.00,3253.193574,1075.486882,6104.101862,-6.681624,0.610635,3.453397
1020.00,3186.271944,1081.515471,6138.240415,-6.718995,0.598133,3.382346
1030.00,3118.980948,1087.419015,6171.667338,-6.755587,0.585562,3.310904
1040.00,3051.328386,1093.196832,6204.378758,-6.791396,0.572924,3.239077
1050.00,2983.322102,1098.848253,6236.37088,-6.826418,0.560219,3.166875
1060.00,2914.969978,1104.372626,6267.639997,-6.860648,0.54745,3.094306
1070.00,2846.279938,1109.769312,6298.182483,-6.894083,0.534617,3.021378
1080.00,2777.259946,1115.037687,6327.994797,-6.926719,0.521722,2.9481
1090.00,2707.918002,1120.177141,6357.073483,-6.958552,0.508767,2.87448
1100.00,2638.262144,1125.187081,6385.41517,-6.989578,0.495754,2.800526
1110.00,2568.300448,1130.066927,6413.016572,-7.019794,0.482683,2.726248
1120.00,2498.041024,1134.816115,6439.874489,-7.049196,0.469556,2.651654
1130.00,2427.492016,1139.434096,6465.985807,-7.077781,0.456375,2.576753
1140.00,2356.661603,1143.920335,6491.347499,-7.105546,0.443141,2.501553
1150.00,2285.557996,1148.274315,6515.956626,-7.132487,0.429856,2.426063
1160.00,2214.189437,1152.495532,6539.810333,-7.158601,0.416521,2.350291
1170.00,2142.5642,1156.583497,6562.905855,-7.183885,0.403138,2.274247
1180.00,2070.690588,1160.537738,6585.240515,-7.208336,0.389708,2.19794
1190.00,1998.576933,1164.357799,6606.811724,-7.231952,0.376234,2.121377
1200.00,1926.231594,1168.043236,6627.616981,-7.254729,0.362715,2.044569
1210.00,1853.662959,1171.593625,6647.653873,-7.276666,0.349155,1.967524
1220.00,1780.879439,1175.008554,6666.920078,-7.297758,0.335555,1.89025
1230.00,1707.889472,1178.287629,6685.413362,-7.318005,0.321916,1.812758
1240.00,1634.701519,1181.430471,6703.131581,-7.337404,0.308239,1.735055
1250.00,1561.324065,1184.436715,6720.072681,-7.355952,0.294527,1.657151
1260.00,1487.765615,1187.306016,6736.234697,-7.373647,0.280781,1.579055
1270.00,1414.034698,1190.03804,6751.615757,-7.390487,0.267002,1.500776
1280.00,1340.139859,1192.632473,6766.214078,-7.406471,0.253193,1.422323
1290.00,1266.089666,1195.089013,6780.027965,-7.421596,0.239354,1.343705
1300.00,1191.892703,1197.407377,6793.055819,-7.435861,0.225487,1.264931
1310.00,1117.55757,1199.587298,6805.296128,-7.449263,0.211595,1.186011
1320.00,1043.092886,1201.628522,6816.747474,-7.461803,0.197678,1.106953
1330.00,968.507282,1203.530814,6827.408529,-7.473477,0.183738,1.027767
1340.00,893.809404,1205.293954,6837.278057,-7.484285,0.169777,0.948461
1350.00,819.007912,1206.917738,6846.354914,-7.494225,0.155796,0.869046
1360.00,744.111478,1208.401979,6854.638048,-7.503296,0.141797,0.78953
1370.00,669.128783,1209.746504,6862.126497,-7.511498,0.127782,0.709922
1380.00,594.06852,1210.951158,6868.819395,-7.518829,0.113752,0.630232
1390.00,518.93939,1212.015803,6874.715965,-7.525288,0.099709,0.550469
1400.00,443.750103,1212.940314,6879.815524,-7.530875,0.085655,0.470642
1410.00,368.509374,1213.724585,6884.11748,-7.535589,0.07159,0.390761
1420.00,293.225927,1214.368526,6887.621334,-7.539429,0.057517,0.310834
1430.00,217.908487,1214.872061,6890.326681,-7.542396,0.043438,0.230872
1440.00,142.565787,1215.235133,6892.233206,-7.544488,0.029353,0.150882
1450.00,67.20656,1215.4577,6893.340689,-7.545705,0.015265,0.070875
1460.00,-8.160458,1215.539735,6893.649002,-7.546048,0.001176,-0.00914
1470.00,-83.52653,1215.48123,6893.158108,-7.545516,-0.012914,-0.089154
1480.00,-158.882918,1215.282191,6891.868064,-7.544109,-0.027002,-0.169158
1490.00,-234.220889,1214.942641,6889.779021,-7.541827,-0.041087,-0.249142
1500.00,-309.531707,1214.462619,6886.89122,-7.538672,-0.055168,-0.329098
1510.00,-384.806643,1213.842181,6883.204995,-7.534642,-0.069242,-0.409015
1520.00,-460.03697,1213.081399,6878.720775,-7.529739,-0.083308,-0.488884
1530.00,-535.213967,1212.18036,6873.43908,-7.523963,-0.097364,-0.568697
1540.00,-610.328921,1211.13917,6867.360521,-7.517315,-0.111409,-0.648445
1550.00,-685.373122,1209.957947,6860.485803,-7.509796,-0.125442,-0.728117
1560.00,-760.337871,1208.636829,6852.815723,-7.501406,-0.139459,-0.807704
1570.00,-835.214479,1207.175968,6844.351171,-7.492146,-0.153461,-0.887198
1580.00,-909.994265,1205.575533,6835.093128,-7.482018,-0.167445,-0.966589
1590.00,-984.668561,1203.83571,6825.042667,-7.471022,-0.181409,-1.045868
1600.00,-1059.228709,1201.9567,6814.200953,-7.45916,-0.195353,-1.125026
1610.00,-1133.666067,1199.938719,6802.569244,-7.446434,-0.209274,-1.204053
1620.00,-1207.972005,1197.782001,6790.148887,-7.432845,-0.223171,-1.282941
1630.00,-1282.13791,1195.486795,6776.941324,-7.418393,-0.237041,-1.36168
1640.00,-1356.155184,1193.053367,6762.948084,-7.403082,-0.250885,-1.440261
1650.00,-1430.015246,1190.481998,6748.17079,-7.386913,-0.2647,-1.518675
1660.00,-1503.709535,1187.772986,6732.611155,-7.369887,-0.278484,-1.596913
1670.00,-1577.229507,1184.926643,6716.270984,-7.352007,-0.292235,-1.674966
1680.00,-1650.56664,1181.943299,6699.152171,-7.333275,-0.305953,-1.752825
1690.00,-1723.712432,1178.823298,6681.256699,-7.313692,-0.319636,-1.83048
1700.00,-1796.658404,1175.567002,6662.586645,-7.293262,-0.333281,-1.907924
1710.00,-1869.396099,1172.174786,6643.144172,-7.271986,-0.346889,-1.985146
1720.00,-1941.917085,1168.647044,6622.931535,-7.249868,-0.360456,-2.062138
1730.00,-2014.212957,1164.984182,6601.951077,-7.226908,-0.373981,-2.138891
1740.00,-2086.275331,1161.186624,6580.20523,-7.203112,-0.387463,-2.215395
1750.00,-2158.095856,1157.25481,6557.696515,-7.17848,-0.4009,-2.291644
1760.00,-2229.666205,1153.189194,6534.427542,-7.153015,-0.414291,-2.367626
1770.00,-2300.978081,1148.990246,6510.401008,-7.126722,-0.427634,-2.443334
1780.00,-2372.023218,1144.658452,6485.619699,-7.099603,-0.440928,-2.518759
1790.00,-2442.79338,1140.194312,6460.086488,-7.07166,-0.45417,-2.593891
1800.00,-2513.280362,1135.598342,6433.804335,-7.042898,-0.467361,-2.668723
1810.00,-2583.475994,1130.871074,6406.776288,-7.013319,-0.480497,-2.743246
1820.00,-2653.372139,1126.013054,6379.005478,-6.982927,-0.493577,-2.81745
1830.00,-2722.960693,1121.024845,6350.495127,-6.951726,-0.506601,-2.891328
1840.00,-2792.233589,1115.907022,6321.24854,-6.919719,-0.519565,-2.964871
1850.00,-2861.182798,1110.660178,6291.269106,-6.88691,-0.53247,-3.03807
1860.00,-2929.800326,1105.284919,6260.560302,-6.853302,-0.545313,-3.110917
1870.00,-2998.078219,1099.781867,6229.125688,-6.8189,-0.558094,-3.183403
1880.00,-3066.008562,1094.151657,6196.968908,-6.783708,-0.570809,-3.25552
1890.00,-3133.58348,1088.394942,6164.093691,-6.747729,-0.583459,-3.327259
1900.00,-3200.795139,1082.512385,6130.503847,-6.710967,-0.596041,-3.398613
1910.00,-3267.635748,1076.504668,6096.203271,-6.673428,-0.608554,-3.469573
1920.00,-3334.097559,1070.372486,6061.195939,-6.635116,-0.620997,-3.54013
1930.00,-3400.172866,1064.116546,6025.48591,-6.596034,-0.633369,-3.610278
1940.00,-3465.854011,1057.737573,5989.077325,-6.556187,-0.645666,-3.680006
1950.00,-3531.13338,1051.236303,5951.974403,-6.515581,-0.65789,-3.749308
1960.00,-3596.003403,1044.61349,5914.181446,-6.474219,-0.670037,-3.818175
1970.00,-3660.456563,1037.869897,5875.702837,-6.432106,-0.682107,-3.8866
1980.00,-3724.485387,1031.006306,5836.543035,-6.389248,-0.694098,-3.954574
1990.00,-3788.082452,1024.023509,5796.706581,-6.345649,-0.706008,-4.02209
2000.00,-3851.240387,1016.922314,5756.198093,-6.301315,-0.717837,-4.089139
2010.00,-3913.951869,1009.703542,5715.022268,-6.25625,-0.729583,-4.155714
2020.00,-3976.209629,1002.368028,5673.183879,-6.21046,-0.741245,-4.221808
2030.00,-4038.00645,994.916619,5630.687776,-6.16395,-0.752821,-4.287412
2040.00,-4099.335167,987.350177,5587.538887,-6.116726,-0.76431,-4.352519
2050.00,-4160.188672,979.669577,5543.742214,-6.068792,-0.77571,-4.417121
2060.00,-4220.55991,971.875708,5499.302834,-6.020155,-0.787021,-4.481211
2070.00,-4280.441882,963.969469,5454.225899,-5.97082,-0.798241,-4.544782
2080.00,-4339.827647,955.951776,5408.516636,-5.920793,-0.809368,-4.607826
2090.00,-4398.71032,947.823554,5362.180343,-5.870079,-0.820402,-4.670335
2100.00,-4457.083077,939.585745,5315.222392,-5.818685,-0.831341,-4.732304
2110.00,-4514.939148,931.2393,5267.648228,-5.766616,-0.842184,-4.793723
2120.00,-4572.271829,922.785185,5219.463366,-5.713879,-0.85293,-4.854587
2130.00,-4629.074472,914.224377,5170.673391,-5.66048,-0.863577,-4.914888
2140.00,-4685.340493,905.557865,5121.283962,-5.606424,-0.874124,-4.974619
2150.00,-4741.063369,896.786652,5071.300803,-5.551719,-0.88457,-5.033773
2160.00,-4796.236641,887.911752,5020.729709,-5.49637,-0.894914,-5.092344
2170.00,-4850.853912,878.93419,4969.576543,-5.440383,-0.905155,-5.150325
2180.00,-4904.908851,869.855006,4917.847236,-5.383766,-0.91529,-5.207708
2190.00,-4958.395192,860.675248,4865.547784,-5.326525,-0.92532,-5.264488
2200.00,-5011.306735,851.395978,4812.684251,-5.268667,-0.935243,-5.320657
2210.00,-5063.637345,842.018269,4759.262765,-5.210197,-0.945058,-5.37621
2220.00,-5115.380957,832.543205,4705.289521,-5.151124,-0.954763,-5.431139
2230.00,-5166.531572,822.971881,4650.770775,-5.091454,-0.964358,-5.485438
2240.00,-5217.08326,813.305405,4595.712847,-5.031193,-0.973842,-5.539102
2250.00,-5267.030162,803.544893,4540.122122,-4.970349,-0.983213,-5.592123
2260.00,-5316.366486,793.691475,4484.005043,-4.908929,-0.99247,-5.644496
2270.00,-5365.086515,783.746289,4427.368117,-4.84694,-1.001613,-5.696215
2280.00,-5413.1846,773.710485,4370.217909,-4.784389,-1.01064,-5.747273
2290.00,-5460.655165,763.585224,4312.561046,-4.721283,-1.01955,-5.797665
2300.00,-5507.492707,753.371677,4254.404212,-4.65763,-1.028342,-5.847385
2310.00,-5553.691798,743.071024,4195.754148,-4.593437,-1.037015,-5.896427
2320.00,-5599.24708,732.684456,4136.617655,-4.528712,-1.045568,-5.944786
2330.00,-5644.153274,722.213174,4077.001589,-4.463461,-1.054001,-5.992455
2340.00,-5688.405173,711.658388,4016.91286,-4.397694,-1.062311,-6.039429
2350.00,-5731.997648,701.02132,3956.358436,-4.331416,-1.070499,-6.085704
2360.00,-5774.925645,690.303199,3895.345337,-4.264636,-1.078563,-6.131272
2370.00,-5817.184187,679.505264,3833.880635,-4.197362,-1.086502,-6.17613
2380.00,-5858.768377,668.628763,3771.971458,-4.129602,-1.094315,-6.220272
2390.00,-5899.673393,657.674955,3709.624982,-4.061362,-1.102003,-6.263693
2400.00,-5939.894494,646.645105,3646.848435,-3.992652,-1.109562,-6.306387
2410.00,-5979.427017,635.540489,3583.649095,-3.923479,-1.116994,-6.348351
2420.00,-6018.266379,624.362391,3520.03429,-3.853851,-1.124296,-6.389578
2430.00,-6056.408077,613.112103,3456.011394,-3.783777,-1.131468,-6.430065
2440.00,-6093.847691,601.790926,3391.587829,-3.713263,-1.138509,-6.469806
2450.00,-6130.580879,590.400168,3326.771065,-3.64232,-1.145419,-6.508797
2460.00,-6166.603385,578.941148,3261.568617,-3.570954,-1.152197,-6.547034
2470.00,-6201.911031,567.415189,3195.988042,-3.499174,-1.158841,-6.584512
2480.00,-6236.499725,555.823624,3130.036944,-3.426988,-1.165351,-6.621226
2490.00,-6270.365458,544.167794,3063.72297,-3.354405,-1.171726,-6.657172
2500.00,-6303.504302,532.449046,2997.053807,-3.281434,-1.177966,-6.692347
2510.00,-6335.912418,520.668735,2930.037184,-3.208082,-1.18407,-6.726746
2520.00,-6367.586047,508.828223,2862.680871,-3.134358,-1.190037,-6.760365
2530.00,-6398.521519,496.92888,2794.992677,-3.06027,-1.195866,-6.7932
2540.00,-6428.715246,484.97208,2726.980449,-2.985828,-1.201557,-6.825248
2550.00,-6458.163729,472.959206,2658.652072,-2.91104,-1.207109,-6.856504
2560.00,-6486.863554,460.891648,2590.015467,-2.835914,-1.212522,-6.886966
2570.00,-6514.811394,448.7708,2521.078592,-2.76046,-1.217794,-6.916629
2580.00,-6542.004009,436.598064,2451.84944,-2.684686,-1.222925,-6.94549
2590.00,-6568.438247,424.374847,2382.336035,-2.6086,-1.227915,-6.973546
2600.00,-6594.111044,412.102563,2312.546437,-2.532212,-1.232764,-7.000794
2610.00,-6619.019422,399.78263,2242.488737,-2.45553,-1.237469,-7.02723
2620.00,-6643.160496,387.416473,2172.171057,-2.378564,-1.242032,-7.052851
2630.00,-6666.531466,375.005522,2101.601549,-2.301322,-1.246451,-7.077655
2640.00,-6689.129623,362.551211,2030.788394,-2.223813,-1.250725,-7.101638
2650.00,-6710.952348,350.05498,1959.739803,-2.146047,-1.254856,-7.124798
2660.00,-6731.99711,337.518275,1888.464011,-2.068031,-1.258841,-7.147131
2670.00,-6752.261471,324.942545,1816.969283,-1.989776,-1.26268,-7.168636
2680.00,-6771.74308,312.329243,1745.263907,-1.911291,-1.266374,-7.18931
2690.00,-6790.43968,299.679829,1673.356196,-1.832583,-1.269921,-7.209151
2700.00,-6808.349102,286.995764,1601.254486,-1.753664,-1.273321,-7.228156
2710.00,-6825.469272,274.278515,1528.967138,-1.674541,-1.276575,-7.246323
2720.00,-6841.798205,261.529553,1456.50253,-1.595224,-1.27968,-7.263649
2730.00,-6857.334006,248.750351,1383.869064,-1.515722,-1.282638,-7.280134
